,TIME,TEMP,UTIL,AVG_UTIL,FREQ,AVG_EP_REW,REW
0,1623002579.6249778,49.099998474121094,20.639999389648438,2.063999891281128,900000,-123.52790903082858,-123.52790903082858
1,1623002580.6829996,48.70000076293945,20.639999389648438,4.127999782562256,900000,-244.83112514164708,-121.30321611081848
2,1623002581.7684224,49.099998474121094,20.639999389648438,6.191999912261963,600000,-251.35002136846649,-6.518896226819402
3,1623002582.837749,48.70000076293945,20.639999389648438,8.255999565124512,900000,-390.21700139042315,-138.86698002195666
4,1623002583.8982043,48.20000076293945,20.639999389648438,10.319999694824219,900000,-526.8849105261559,-136.66790913573274
5,1623002584.9813602,48.70000076293945,20.639999389648438,12.383999824523926,600000,-551.9703304114437,-25.08541988528787
6,1623002586.0547855,49.099998474121094,20.6299991607666,14.446999549865723,900000,-706.3123117685444,-154.3419813571007
7,1623002587.1715655,48.20000076293945,20.6299991607666,16.510000228881836,1100000,-847.5627876204737,-141.2504758519293
8,1623002588.215554,47.20000076293945,20.6299991607666,18.572999954223633,1500000,-983.9066968744621,-136.34390925398836
9,1623002589.2820807,48.70000076293945,20.6299991607666,20.63599967956543,900000,-1020.6299700514502,-36.72327317698802
10,1623002590.3349936,48.70000076293945,20.6200008392334,20.634000778198242,1400000,-1161.6213952468822,-140.99142519543213
11,1623002591.3797052,48.20000076293945,20.6200008392334,20.631999969482422,1400000,-1290.251526111046,-128.6301308641636
12,1623002592.4245884,48.70000076293945,20.6200008392334,20.6299991607666,1400000,-1418.8794359736903,-128.62790986264451
13,1623002593.4822805,48.70000076293945,20.6200008392334,20.628000259399414,1100000,-1566.4623455481133,-147.58290957442293
14,1623002594.5320976,48.70000076293945,20.610000610351562,20.625,1400000,-1702.3052101328055,-135.8428645846922
15,1623002595.5789897,47.70000076293945,20.610000610351562,20.621999740600586,1400000,-1830.7833029612943,-128.47809282848877
16,1623002596.6232574,48.20000076293945,20.610000610351562,20.6200008392334,1400000,-1959.2591726689877,-128.47586970769342
17,1623002597.6672835,48.20000076293945,20.610000610351562,20.618000030517578,1400000,-2087.4602038984535,-128.20103122946566
18,1623002598.711666,47.20000076293945,20.600000381469727,20.614999771118164,1400000,-2215.7919571177213,-128.33175321926794
19,1623002599.7700071,47.70000076293945,20.600000381469727,20.61199951171875,1000000,-2372.7198679128473,-156.92791079512605
20,1623002600.8620684,48.70000076293945,20.600000381469727,20.610000610351562,600000,-2508.8938490486958,-136.17398113584827
21,1623002601.9578943,48.20000076293945,20.59000015258789,20.60700035095215,600000,-2635.0648299251447,-126.17098087644885
22,1623002603.0140035,48.20000076293945,20.59000015258789,20.604000091552734,1200000,-2784.9243612249443,-149.85953129979947
23,1623002604.111093,47.70000076293945,20.59000015258789,20.60099983215332,600000,-2928.6098932833233,-143.68553205837927
24,1623002605.1940672,47.70000076293945,47.15999984741211,23.256000518798828,800000,-2932.3803101461335,-3.7704168628100305
25,1623002606.2551737,47.70000076293945,35.5,24.7450008392334,1400000,-3080.6957487324275,-148.31543858629422
26,1623002607.3540294,49.099998474121094,20.59000015258789,24.743000030517578,600000,-3230.8662794938095,-150.1705307613822
27,1623002608.4273565,47.70000076293945,20.59000015258789,24.740999221801758,800000,-3234.6432153318824,-3.776935838072909
28,1623002609.5107048,47.70000076293945,20.59000015258789,24.739999771118164,700000,-3238.523430677191,-3.8802153453083648
29,1623002610.606214,47.20000076293945,20.59000015258789,24.73900032043457,600000,-3371.056907475165,-132.53347679797423
30,1623002611.685957,47.20000076293945,20.59000015258789,24.738000869750977,800000,-3374.572955784014,-3.516048308848804
31,1623002612.7306585,46.70000076293945,20.579999923706055,24.73699951171875,1500000,-3522.2384873846295,-147.6655316006156
32,1623002613.8029466,47.70000076293945,20.579999923706055,24.736000061035156,800000,-3538.80032391232,-16.56183652769038
33,1623002614.8700385,48.70000076293945,20.579999923706055,24.735000610351562,800000,-3541.9267540729315,-3.1264301606115543
34,1623002615.937207,47.70000076293945,20.56999969482422,22.076000213623047,800000,-3548.122195884606,-6.195441811674193
35,1623002617.0089738,47.20000076293945,20.56999969482422,20.58300018310547,800000,-3554.456354738538,-6.334158853931803
36,1623002618.0802805,47.70000076293945,20.56999969482422,20.58099937438965,800000,-3560.9326208110488,-6.476266072511006
37,1623002619.1247382,48.20000076293945,20.56999969482422,20.57900047302246,1500000,-3704.575601809568,-143.64298099851916
38,1623002620.1645966,48.20000076293945,20.559999465942383,20.576000213623047,1500000,-3830.715582548688,-126.13998073911975
39,1623002621.2362459,48.20000076293945,20.559999465942383,20.572999954223633,800000,-3854.441330188805,-23.725747640117
40,1623002622.3021936,47.20000076293945,20.559999465942383,20.56999969482422,900000,-3878.4328509415063,-23.991520752701497
41,1623002623.3749564,47.20000076293945,20.549999237060547,20.566999435424805,800000,-3887.306656244419,-8.873805302913048
42,1623002624.4479609,47.70000076293945,20.549999237060547,20.56399917602539,800000,-3893.824910695373,-6.518254450953929
43,1623002625.5032916,48.20000076293945,20.549999237060547,20.56100082397461,1100000,-4040.8853866490276,-147.06047595365456
44,1623002626.5770698,47.20000076293945,20.549999237060547,20.55900001525879,800000,-4054.9153214442817,-14.029934795254189
45,1623002627.6425142,48.20000076293945,20.540000915527344,20.555999755859375,900000,-4078.944674233085,-24.0293527888036
46,1623002628.7157383,47.20000076293945,20.540000915527344,20.55299949645996,800000,-4087.9886318014796,-9.04395756839433
47,1623002629.7860925,48.20000076293945,20.540000915527344,20.549999237060547,1000000,-4239.651613257763,-151.66298145628284
48,1623002630.8597379,48.20000076293945,20.540000915527344,20.54800033569336,800000,-4250.935755424209,-11.28414216644601
49,1623002631.9431415,47.20000076293945,20.530000686645508,20.545000076293945,700000,-4248.84138642054,2.094369003668441
50,1623002633.031244,47.70000076293945,20.530000686645508,20.54199981689453,800000,-4257.506478439788,-8.665092019247632
51,1623002634.0965824,46.70000076293945,20.530000686645508,20.540000915527344,900000,-4281.579098192238,-24.072619752449917
52,1623002635.1698742,47.20000076293945,20.520000457763672,20.53700065612793,800000,-4290.3889824314765,-8.809884239238507
53,1623002636.2437434,47.20000076293945,20.520000457763672,20.534000396728516,800000,-4296.575147461507,-6.186165030030319
54,1623002637.3129635,46.70000076293945,20.520000457763672,20.5310001373291,800000,-4302.638481944125,-6.06333448261738
55,1623002638.3879807,46.20000076293945,20.520000457763672,20.52899932861328,800000,-4309.101165705083,-6.462683760958533
56,1623002639.434699,47.70000076293945,20.510000228881836,20.525999069213867,1400000,-4452.069229996968,-142.9680642918848
57,1623002640.5082874,46.70000076293945,20.510000228881836,20.523000717163086,800000,-4473.545976463062,-21.47674646609415
58,1623002641.5819294,47.70000076293945,20.510000228881836,20.520000457763672,800000,-4479.893359841131,-6.347383378069274
59,1623002642.6554532,47.20000076293945,20.510000228881836,20.51799964904785,800000,-4486.117035851569,-6.223676010438178
60,1623002643.7354167,46.70000076293945,20.5,20.514999389648438,700000,-4483.621873092779,2.4951627587894887
61,1623002644.8196218,46.20000076293945,20.5,20.511999130249023,700000,-4478.753681066979,4.868192025800189
62,1623002645.8952734,46.70000076293945,20.5,20.510000228881836,800000,-4487.496134010346,-8.742452943367207
63,1623002646.9662333,46.70000076293945,20.489999771118164,20.506999969482422,800000,-4493.745633493068,-6.249499482722493
64,1623002648.036042,46.70000076293945,20.489999771118164,20.503999710083008,800000,-4500.00218173553,-6.256548242461671
65,1623002649.1043131,46.70000076293945,20.489999771118164,20.500999450683594,800000,-4506.263427396205,-6.261245660674556
66,1623002650.1637013,46.70000076293945,20.489999771118164,20.499000549316406,1300000,-4649.812959298181,-143.54953190197668
67,1623002651.234551,47.70000076293945,20.479999542236328,20.496000289916992,800000,-4668.588312098116,-18.775352799934588
68,1623002652.3102937,46.70000076293945,20.479999542236328,20.493000030517578,800000,-4674.743204156214,-6.154892058098101
69,1623002653.3839273,46.20000076293945,20.479999542236328,20.489999771118164,800000,-4681.295118075972,-6.551913919757943
70,1623002654.4570124,47.70000076293945,20.479999542236328,20.488000869750977,800000,-4687.720036984278,-6.424918908305507
71,1623002655.5524223,47.20000076293945,20.469999313354492,20.485000610351562,600000,-4818.366767496933,-130.64673051265572
72,1623002656.6392295,46.70000076293945,20.469999313354492,20.48200035095215,700000,-4815.863115899224,2.50365159770932
73,1623002657.722584,46.20000076293945,20.469999313354492,20.479999542236328,700000,-4810.986215175741,4.876900723482782
74,1623002658.7985327,46.70000076293945,20.459999084472656,20.476999282836914,800000,-4819.806293184128,-8.820078008386853
75,1623002659.8585424,46.70000076293945,20.459999084472656,20.474000930786133,1000000,-4971.043770455124,-151.2374772709967
76,1623002660.9321735,47.20000076293945,20.459999084472656,20.47100067138672,800000,-4982.6404375084785,-11.596667053353947
77,1623002662.0204275,47.70000076293945,20.459999084472656,20.4689998626709,700000,-4980.260768361543,2.3796691469349778
78,1623002663.0976868,46.70000076293945,20.450000762939453,20.465999603271484,700000,-4975.380355758706,4.880412602836918
79,1623002664.1776357,46.70000076293945,20.450000762939453,20.46299934387207,700000,-4970.499204695831,4.881151062875025
80,1623002665.2611802,46.70000076293945,20.450000762939453,20.459999084472656,700000,-4965.7483101787675,4.750894517064189
81,1623002666.3074543,47.20000076293945,20.450000762939453,20.45800018310547,1500000,-5111.368040264177,-145.61973008540963
82,1623002667.3790195,46.70000076293945,20.440000534057617,20.454999923706055,800000,-5135.370767811921,-24.002727547743966
83,1623002668.4515276,47.20000076293945,20.440000534057617,20.45199966430664,800000,-5142.012272549184,-6.641504737263225
84,1623002669.545447,47.70000076293945,20.440000534057617,20.450000762939453,600000,-5272.6250026651105,-130.6127301159272
85,1623002670.6103554,46.70000076293945,20.440000534057617,20.447999954223633,1000000,-5428.810477982982,-156.1854753178717
86,1623002671.6850493,47.20000076293945,20.43000030517578,20.44499969482422,800000,-5440.078573397472,-11.268095414490135
87,1623002672.7571297,46.20000076293945,20.43000030517578,20.441999435424805,800000,-5446.35139532086,-6.272821923388436
88,1623002673.8297424,46.20000076293945,20.43000030517578,20.440000534057617,800000,-5453.023632387392,-6.672237066532182
89,1623002674.8768852,47.70000076293945,20.420000076293945,20.437000274658203,1300000,-5596.103344926127,-143.07971253873467
90,1623002675.9471745,46.20000076293945,20.420000076293945,20.43400001525879,800000,-5614.89746188034,-18.794116954213607
91,1623002676.994591,46.20000076293945,20.420000076293945,20.430999755859375,1500000,-5757.991192896536,-143.09373101619576
92,1623002678.0346148,46.70000076293945,20.420000076293945,20.429000854492188,1500000,-5883.846725031209,-125.85553213467321
93,1623002679.113487,47.70000076293945,20.40999984741211,20.426000595092773,700000,-5899.087623832384,-15.240898801175426
94,1623002680.1958792,47.20000076293945,20.40999984741211,20.42300033569336,700000,-5894.0695873690665,5.018036463317598
95,1623002681.2545662,46.20000076293945,20.40999984741211,20.420000076293945,1000000,-6047.56831716456,-153.49872979549264
96,1623002682.328674,46.70000076293945,20.399999618530273,20.41699981689453,800000,-6059.295028593414,-11.726711428853953
97,1623002683.4000514,47.70000076293945,20.399999618530273,20.413999557495117,800000,-6066.028855387879,-6.733826794464739
98,1623002684.471219,47.70000076293945,20.399999618530273,20.410999298095703,800000,-6072.502622598366,-6.473767210486367
99,1623002685.5455003,46.70000076293945,20.399999618530273,20.409000396728516,800000,-6079.114254640681,-6.611632042315684
100,1623002686.6196458,47.20000076293945,20.389999389648438,20.4060001373291,800000,-6086.004512825363,-6.890258184682093
101,1623002687.6685936,48.20000076293945,20.389999389648438,20.402999877929688,1300000,-6229.16924251023,-143.16472968486642
102,1623002688.7519932,46.70000076293945,20.389999389648438,20.399999618530273,700000,-6239.2739499331765,-10.104707422946255
103,1623002689.8196146,46.70000076293945,20.389999389648438,20.398000717163086,900000,-6266.23214884828,-26.958198915103573
104,1623002690.9034734,47.20000076293945,20.3799991607666,20.395000457763672,700000,-6266.466346577676,-0.23419772939576688
105,1623002691.9881148,47.20000076293945,20.3799991607666,20.392000198364258,700000,-6261.700130129892,4.766216447783698
106,1623002693.044488,47.20000076293945,20.3799991607666,20.389999389648438,1100000,-6410.715674533302,-149.0155444034096
107,1623002694.1171768,46.20000076293945,20.3700008392334,20.386999130249023,800000,-6424.879574850493,-14.163900317190617
108,1623002695.1903732,47.20000076293945,20.3700008392334,20.384000778198242,800000,-6431.550612734311,-6.671037883817583
109,1623002696.267392,47.20000076293945,20.3700008392334,20.381000518798828,800000,-6438.360467353849,-6.809854619538448
110,1623002697.3368158,47.70000076293945,20.3700008392334,20.378999710083008,800000,-6444.912661863248,-6.552194509398939
111,1623002698.4092238,46.70000076293945,20.360000610351562,20.375999450683594,800000,-6451.344482218726,-6.431820355477827
112,1623002699.479218,46.20000076293945,20.360000610351562,20.37299919128418,800000,-6458.04170714784,-6.697224929113453
113,1623002700.5730257,47.20000076293945,20.360000610351562,20.3700008392334,700000,-6455.771083241991,2.270623905849
114,1623002701.6365886,47.20000076293945,20.360000610351562,20.368000030517578,900000,-6482.680356512769,-26.909273270778648
115,1623002702.7174175,46.70000076293945,20.350000381469727,20.364999771118164,700000,-6482.777831291255,-0.09747477848588382
116,1623002703.7923884,46.70000076293945,20.350000381469727,20.36199951171875,800000,-6491.740626355513,-8.962795064257607
117,1623002704.876682,46.20000076293945,20.350000381469727,20.360000610351562,700000,-6489.209824347745,2.530802007768129
118,1623002705.955967,46.20000076293945,20.350000381469727,20.357999801635742,700000,-6484.436722127855,4.773102219889914
119,1623002707.0476708,47.20000076293945,20.34000015258789,20.354999542236328,600000,-6612.325933930353,-127.88921180249811
120,1623002708.133484,46.20000076293945,20.34000015258789,20.351999282836914,700000,-6610.185959290219,2.139974640133695
121,1623002709.2133656,47.70000076293945,20.34000015258789,20.350000381469727,700000,-6605.280632971711,4.905326318508193
122,1623002710.2968168,46.70000076293945,20.329999923706055,20.347000122070312,700000,-6600.122874486285,5.157758485426771
123,1623002711.3776026,45.70000076293945,20.329999923706055,20.3439998626709,700000,-6595.347208320893,4.775666165392245
124,1623002712.4873083,47.20000076293945,20.329999923706055,20.340999603271484,700000,-6590.866859585037,4.480348735856005
125,1623002713.5763874,47.20000076293945,27.93000030517578,21.099000930786133,700000,-6586.38531158386,4.481548001176755
126,1623002714.6603673,47.20000076293945,20.329999923706055,21.097000122070312,700000,-6581.644303130596,4.741008453263843
127,1623002715.7183743,46.20000076293945,20.329999923706055,21.094999313354492,1100000,-6732.093110815411,-150.44880768481505
128,1623002716.8025236,47.20000076293945,20.31999969482422,21.091999053955078,700000,-6737.476638817897,-5.38352800248577
129,1623002717.891688,46.70000076293945,20.31999969482422,21.09000015258789,700000,-6732.731459907924,4.7451789099736725
130,1623002718.9683166,46.20000076293945,20.31999969482422,21.08799934387207,700000,-6728.112612721913,4.618847186010418
131,1623002720.0481513,46.70000076293945,20.31999969482422,21.086000442504883,700000,-6723.623326473478,4.489286248434389
132,1623002721.1312423,47.20000076293945,20.309999465942383,21.083999633789062,700000,-6719.132858744204,4.490467729274123
133,1623002722.2186332,47.20000076293945,20.309999465942383,21.082000732421875,700000,-6714.382947218897,4.749911525306429
134,1623002723.3045304,46.20000076293945,20.309999465942383,21.079999923706055,700000,-6709.344875342375,5.038071876521483
135,1623002724.3867054,46.20000076293945,20.299999237060547,20.316999435424805,700000,-6704.433825758725,4.911049583650515
136,1623002725.4683003,46.70000076293945,20.299999237060547,20.31399917602539,700000,-6699.3947684898685,5.039057268856196
137,1623002726.5503764,46.20000076293945,20.299999237060547,20.31100082397461,700000,-6694.482904631536,4.911863858332174
138,1623002727.6329036,46.70000076293945,20.299999237060547,20.30900001525879,700000,-6689.570558744219,4.912345887317377
139,1623002728.7117658,46.70000076293945,20.290000915527344,20.305999755859375,700000,-6684.7884815903,4.7820771539190545
140,1623002729.788864,47.20000076293945,20.290000915527344,20.30299949645996,700000,-6679.747668990562,5.040812599738642
141,1623002730.8719833,46.20000076293945,20.290000915527344,20.299999237060547,700000,-6674.834062314429,4.913606676132991
142,1623002731.9534295,46.70000076293945,20.290000915527344,20.29800033569336,700000,-6669.919991925361,4.9140703890681205
143,1623002733.0362751,46.70000076293945,20.280000686645508,20.295000076293945,700000,-6665.136208585741,4.783783339619738
144,1623002734.118782,47.20000076293945,20.280000686645508,20.29199981689453,700000,-6660.2213766356435,4.914831950097328
145,1623002735.2031379,46.70000076293945,20.280000686645508,20.290000915527344,700000,-6655.178726131309,5.042650504334146
146,1623002736.2834265,46.20000076293945,20.280000686645508,20.288000106811523,700000,-6650.393891974423,4.784834156886426
147,1623002737.3634112,47.20000076293945,20.270000457763672,20.28499984741211,700000,-6645.608615752286,4.785276222136936
148,1623002738.4152007,47.20000076293945,20.270000457763672,20.281999588012695,1300000,-6791.123346772296,-145.51473102001046
149,1623002739.4971244,46.70000076293945,20.270000457763672,20.280000686645508,700000,-6801.3374889929055,-10.214142220609752
150,1623002740.58403,47.20000076293945,20.270000457763672,20.277999877929688,700000,-6796.168568175417,5.1689208174882735
151,1623002741.6675487,45.70000076293945,20.260000228881836,20.274999618530273,700000,-6791.123591164742,5.044977010675579
152,1623002742.7511065,46.20000076293945,20.260000228881836,20.27199935913086,700000,-6786.205851140464,4.91774002427808
153,1623002743.8333972,46.70000076293945,20.260000228881836,20.270000457763672,700000,-6781.418578179996,4.7872729604677815
154,1623002744.91871,47.20000076293945,20.260000228881836,20.26799964904785,700000,-6776.372628053494,5.045950126502616
155,1623002746.0055304,46.20000076293945,20.25,20.264999389648438,700000,-6771.453786807425,4.918841246069183
156,1623002747.0850387,46.70000076293945,20.25,20.261999130249023,700000,-6766.534675999867,4.919110807557564
157,1623002748.1476045,46.70000076293945,20.25,20.260000228881836,1000000,-6919.7154050019035,-153.1807290020356
158,1623002749.2303212,46.70000076293945,20.25,20.257999420166016,700000,-6922.168111848685,-2.4527068467812274
159,1623002750.3134215,46.20000076293945,20.239999771118164,20.2549991607666,700000,-6916.87475907987,5.293352768814861
160,1623002751.3988438,45.20000076293945,20.239999771118164,20.25200080871582,700000,-6912.085078758094,4.789680321776721
161,1623002752.480999,47.20000076293945,20.239999771118164,20.25,700000,-6907.164396176573,4.920682581520714
162,1623002753.5322556,46.70000076293945,20.239999771118164,20.24799919128418,1400000,-7052.196054073161,-145.0316578965872
