,TIME,TEMP,UTIL,AVG_UTIL,FREQ,AVG_EP_REW,REW
0,1623008081.0921369,62.29999923706055,100.0,10.0,1500000,-153.90093391947596,-153.90093391947596
1,1623008082.1726432,62.79999923706055,98.48999786376953,19.849000930786133,1500000,-295.3683046753488,-141.4673707558728
2,1623008083.2409258,63.29999923706055,97.73999786376953,29.62299919128418,1500000,-445.9798443426838,-150.61153966733502
3,1623008084.3092375,61.79999923706055,100.0,39.62300109863281,1500000,-606.6185607375893,-160.6387163949055
4,1623008085.3607538,62.29999923706055,97.48999786376953,49.37200164794922,1500000,-626.4737898990293,-19.855229161439993
5,1623008086.411391,62.79999923706055,100.0,59.37200164794922,1500000,-638.4857039107661,-12.011914011736833
6,1623008087.4711578,62.79999923706055,98.73999786376953,69.24600219726562,1500000,-644.486588281773,-6.000884371006949
7,1623008088.522772,62.29999923706055,99.75,79.22100067138672,1500000,-647.5421916194603,-3.055603337687181
8,1623008089.592375,63.29999923706055,100.0,89.22100067138672,1500000,-649.005562382582,-1.4633707631216861
9,1623008090.6724215,62.79999923706055,98.5,99.07099914550781,1500000,-649.9072978755153,-0.9017354929333354
10,1623008091.7509162,61.79999923706055,99.25,98.99600219726562,1500000,-651.372403524115,-1.4651056485997298
11,1623008092.8109481,62.79999923706055,98.5,98.99700164794922,1500000,-653.366360964975,-1.9939574408599796
12,1623008093.862081,63.70000076293945,98.98999786376953,99.12200164794922,1500000,-654.8286067306478,-1.4622457656727885
13,1623008094.9209387,62.79999923706055,100.0,99.12200164794922,1500000,-656.583312563065,-1.7547058324171658
14,1623008095.9809923,63.29999923706055,97.4800033569336,99.12100219726562,1500000,-657.762623916757,-1.1793113536920448
15,1623008097.030999,62.29999923706055,99.0,99.02100372314453,1500000,-658.3942429654383,-0.6316190486812641
16,1623008098.0863404,61.29999923706055,98.01000213623047,98.947998046875,1500000,-659.5753461763148,-1.181103210876616
17,1623008099.150935,62.29999923706055,99.75,98.947998046875,1500000,-660.7597921301114,-1.1844459537965566
18,1623008100.200928,62.29999923706055,98.75,98.822998046875,1500000,-662.5185521586203,-1.7587600285089806
19,1623008101.2469769,63.29999923706055,99.75,98.947998046875,1500000,-663.9848736112305,-1.4663214526101722
20,1623008102.3109188,62.79999923706055,99.25,98.947998046875,1500000,-665.4499792598302,-1.4651056485997298
21,1623008103.3601077,62.79999923706055,98.98999786376953,98.99700164794922,1500000,-667.2081123269143,-1.7581330670840671
22,1623008104.4321096,63.29999923706055,98.75,98.9729995727539,1500000,-669.2087918569723,-2.000679530058086
23,1623008105.4809592,63.70000076293945,98.75,98.8479995727539,1500000,-670.1116682529147,-0.9028763959423376
24,1623008106.5310538,61.79999923706055,98.5,98.94999694824219,1500000,-671.8703776447434,-1.758709391828738
25,1623008107.5837722,63.29999923706055,99.0,98.94999694824219,1500000,-673.3320512211778,-1.4616735764344622
26,1623008108.64634,62.79999923706055,100.0,99.14900207519531,1500000,-673.9636956214626,-0.6316444002848467
27,1623008109.7109182,61.29999923706055,97.7300033569336,98.9469985961914,1500000,-675.720054373793,-1.7563587523303212
28,1623008110.7811012,63.29999923706055,99.75,99.0469970703125,1500000,-677.7194093135062,-1.999354939713193
29,1623008111.8409977,63.70000076293945,98.25,98.89700317382812,1500000,-678.3504261976371,-0.6310168841309487
30,1623008112.9009936,61.29999923706055,100.0,98.97200012207031,1500000,-679.5285335405938,-1.1781073429566806
31,1623008113.97098,62.29999923706055,100.0,99.072998046875,1500000,-681.2873189207064,-1.7587853801125632
32,1623008115.030497,63.29999923706055,97.48999786376953,98.9469985961914,1500000,-682.4678447860829,-1.1805258653764827
33,1623008116.0954597,62.29999923706055,98.98999786376953,98.97100067138672,1500000,-684.2254132749026,-1.7575684888197358
34,1623008117.170971,63.29999923706055,98.75,98.99600219726562,1500000,-685.4030071046423,-1.17759382973958
35,1623008118.2309718,62.29999923706055,100.0,99.09600067138672,1500000,-686.86816130406,-1.4651541994177375
36,1623008119.2821286,62.79999923706055,98.98999786376953,98.99500274658203,1500000,-688.3298766862007,-1.4617153821407651
37,1623008120.3410306,62.79999923706055,99.25,99.14700317382812,1500000,-690.0856634249177,-1.7557867387169708
38,1623008121.4135787,63.29999923706055,99.0,99.0719985961914,1500000,-690.9834680357318,-0.8978046108140578
39,1623008122.50025,61.79999923706055,99.25,99.1719970703125,1500000,-692.7449296293776,-1.7614615936457412
40,1623008123.5663662,63.29999923706055,96.73999786376953,98.84600067138672,1500000,-693.9397960565747,-1.1948664271971285
41,1623008124.6316526,62.29999923706055,96.48999786376953,98.49500274658203,1500000,-695.1347335816007,-1.1949375250260506
42,1623008125.7009416,62.29999923706055,97.47000122070312,98.49299621582031,1500000,-696.6276700262479,-1.4929364446471975
43,1623008126.750962,62.79999923706055,95.72000122070312,98.16600036621094,1500000,-697.5594194861175,-0.9317494598695735
44,1623008127.8308828,61.79999923706055,98.23999786376953,98.11499786376953,1500000,-699.0591050532204,-1.499685567102885
45,1623008128.8910275,62.79999923706055,98.98999786376953,98.01399993896484,1500000,-700.556468829652,-1.4973637764315821
46,1623008129.9410233,62.79999923706055,99.5,98.06500244140625,1500000,-701.4974315516462,-0.9409627219941772
47,1623008131.0018632,61.79999923706055,97.75,97.91500091552734,1500000,-702.7141840688699,-1.2167525172237692
48,1623008132.0637162,62.29999923706055,99.5,97.96499633789062,1500000,-703.6736316085888,-0.9594475397188464
49,1623008133.130292,61.79999923706055,95.20999908447266,97.56099700927734,1500000,-705.474261389823,-1.8006297812341714
50,1623008134.1809344,63.29999923706055,99.5,97.83699798583984,1500000,-706.4028689274422,-0.9286075376192517
51,1623008135.2250714,61.79999923706055,100.0,98.18800354003906,1500000,-707.2118430555649,-0.8089741281227223
52,1623008136.2863014,59.900001525878906,25.6299991607666,91.00399780273438,1500000,-709.8391110607978,-2.6272680052328585
53,1623008137.3472111,59.900001525878906,29.6200008392334,84.39399719238281,1500000,-714.8596743972257,-5.020563336427912
54,1623008138.393311,58.400001525878906,25.6299991607666,77.13300323486328,1500000,-723.9874891978197,-9.127814800594006
55,1623008139.4348156,57.900001525878906,25.6299991607666,69.7969970703125,1500000,-738.4655690081768,-14.478079810357022
56,1623008140.4783862,57.400001525878906,25.6299991607666,62.40999984741211,1500000,-758.9576277028742,-20.49205869469745
57,1623008141.5211039,56.0,25.6299991607666,55.198001861572266,1500000,-915.1570545029049,-156.19942680003064
58,1623008142.5645275,56.400001525878906,25.6299991607666,47.81100082397461,1500000,-1064.2313790786388,-149.07432457573407
59,1623008143.6084092,56.0,25.6200008392334,40.85200119018555,1500000,-1205.9177031660915,-141.68632408745282
60,1623008144.6513982,56.0,25.6200008392334,33.4640007019043,1500000,-1340.1660256208538,-134.2483224547624
61,1623008145.6997175,56.0,25.6200008392334,26.025999069213867,1500000,-1473.8192322028137,-133.65320658195986
62,1623008146.7557335,54.5,25.6200008392334,26.024999618530273,1500000,-1607.3185476413678,-133.49931543855405
63,1623008147.8051984,55.0,26.149999618530273,25.67799949645996,1500000,-1740.6237546505738,-133.30520700920596
64,1623008148.8470073,54.5,25.6200008392334,25.677000045776367,1500000,-1873.9279622090962,-133.30420755852236
65,1623008149.888447,54.5,25.6200008392334,25.676000595092773,1500000,-2007.2311684095864,-133.30320620049014
66,1623008150.9300985,54.5,25.6200008392334,25.674999237060547,1500000,-2140.5323757087094,-133.30120729912295
67,1623008151.9717646,54.5,25.610000610351562,25.67300033569336,1500000,-2273.4595501554822,-132.927174446773
68,1623008153.0233836,53.5,25.610000610351562,25.67099952697754,1500000,-2407.130416918187,-133.67086676270497
69,1623008154.0725954,54.0,31.219999313354492,26.231000900268555,1500000,-2540.80028232286,-133.66986540467275
70,1623008155.1205776,54.0,25.610000610351562,26.229999542236328,1500000,-2674.469148276849,-133.66886595398915
71,1623008156.1637478,54.0,25.610000610351562,26.229000091552734,1500000,-2807.774168240406,-133.30501996355704
72,1623008157.20998,53.0,25.610000610351562,26.22800064086914,1500000,-2941.2043429465784,-133.4301747061724
73,1623008158.2587004,53.5,25.610000610351562,26.173999786376953,1500000,-3074.633518202067,-133.42917525548881
74,1623008159.3055866,53.5,25.610000610351562,26.17300033569336,1500000,-3208.7135377841546,-134.08001958208732
75,1623008160.3471384,53.0,33.91999816894531,27.003000259399414,1500000,-3342.7925579155585,-134.07902013140372
76,1623008161.3884435,53.0,25.610000610351562,27.00200080871582,1500000,-3477.0497322860374,-134.25717437047905
77,1623008162.432099,53.5,25.600000381469727,27.000999450683594,1500000,-3611.3059072058327,-134.25617491979546
78,1623008163.4740868,53.5,25.600000381469727,27.0,1500000,-3744.509519066373,-133.20361186054035
79,1623008164.51771,52.099998474121094,25.600000381469727,26.437999725341797,1500000,-3878.023538663719,-133.5140195973461
80,1623008165.5645497,53.0,25.600000381469727,26.437000274658203,1500000,-4011.361826580727,-133.33828791700816
81,1623008166.6158805,52.5,25.600000381469727,26.43600082397461,1500000,-4144.873845369358,-133.5120187886303
82,1623008167.666428,53.0,25.600000381469727,26.434999465942383,1500000,-4278.072458069131,-133.19861269977375
83,1623008168.7234905,52.099998474121094,25.59000015258789,26.433000564575195,1500000,-4411.759632744786,-133.68717467565483
84,1623008169.7720616,53.5,25.59000015258789,26.430999755859375,1500000,-4544.434651640228,-132.6750188954418
85,1623008170.8114626,53.0,25.59000015258789,25.597999572753906,1500000,-4677.107671634303,-132.67301999407462
86,1623008171.854561,53.0,25.59000015258789,25.59600067138672,1500000,-4809.468283082856,-132.36061144855304
87,1623008172.894557,52.099998474121094,25.59000015258789,25.594999313354492,1500000,-4941.660851521925,-132.19256843906922
88,1623008173.9398685,51.599998474121094,25.59000015258789,25.5939998626709,1500000,-5074.156139026946,-132.49528750502085
89,1623008174.981177,52.5,25.59000015258789,25.593000411987305,1500000,-5206.346706657299,-132.1905676303534
90,1623008176.0353112,51.599998474121094,25.59000015258789,25.591999053955078,1500000,-5338.702318945086,-132.35561228778644
91,1623008177.077266,52.099998474121094,25.579999923706055,25.59000015258789,1500000,-5471.055930424156,-132.35361147907062
92,1623008178.1170552,52.099998474121094,25.579999923706055,25.58799934387207,1500000,-5603.241498893743,-132.1855684695868
93,1623008179.1606033,51.599998474121094,25.579999923706055,25.586999893188477,1500000,-5735.593111471446,-132.35161257770343
94,1623008180.2059448,52.099998474121094,25.579999923706055,25.586000442504883,1500000,-5867.4548631453745,-131.86175167392852
95,1623008181.2522914,50.599998474121094,25.579999923706055,25.584999084472656,1500000,-5999.47351266624,-132.01864952086544
96,1623008182.2953997,51.099998474121094,25.56999969482422,25.58300018310547,1500000,-6131.331264630086,-131.85775196384552
97,1623008183.3520854,50.599998474121094,25.56999969482422,25.58099937438965,1500000,-6263.508833679506,-132.17756904942078
98,1623008184.394751,51.599998474121094,25.56999969482422,25.57900047302246,1500000,-6395.521482681573,-132.0126490020666
99,1623008185.4452295,51.099998474121094,25.56999969482422,25.57699966430664,1500000,-6527.532132782272,-132.01065010069942
100,1623008186.4873762,51.099998474121094,25.56999969482422,25.575000762939453,1500000,-6659.382884776635,-131.8507519943631
101,1623008187.5325868,50.599998474121094,25.56999969482422,25.573999404907227,1500000,-6791.232637320315,-131.8497525436795
102,1623008188.581916,50.599998474121094,25.56999969482422,25.572999954223633,1500000,-6923.569248601021,-132.33661128070636
103,1623008189.6345031,52.099998474121094,25.559999465942383,25.570999145507812,1500000,-7056.301535617761,-132.7322870167396
104,1623008190.6966186,52.5,28.170000076293945,25.829999923706055,1500000,-7188.728103309149,-132.42656769138856
105,1623008191.7397215,51.599998474121094,25.559999465942383,25.827999114990234,1500000,-7321.153671549854,-132.42556824070496
106,1623008192.7861652,51.599998474121094,25.559999465942383,25.82699966430664,1500000,-7453.578240339875,-132.42456879002137
107,1623008193.829645,51.599998474121094,25.559999465942383,25.826000213623047,1500000,-7585.838890440575,-132.26065010069942
108,1623008194.8815837,51.099998474121094,25.559999465942383,25.825000762939453,1500000,-7718.8165024689615,-132.97761202838703
109,1623008195.9308352,52.099998474121094,29.440000534057617,26.211999893188477,1500000,-7851.793115046665,-132.97661257770343
110,1623008196.9736807,52.099998474121094,25.559999465942383,26.211000442504883,1500000,-7984.768726266336,-132.9756112196712
111,1623008198.0344718,52.099998474121094,25.559999465942383,26.209999084472656,1500000,-8119.569014076533,-134.80028781019664
112,1623008199.1051707,52.5,42.45000076293945,27.898000717163086,1500000,-8255.84430036085,-136.27528628431773
113,1623008200.1574113,52.5,40.310001373291016,29.37299919128418,1500000,-8391.391949210329,-135.54764884947872
114,1623008201.1991317,51.099998474121094,25.559999465942383,29.11199951171875,1500000,-8527.102517298446,-135.71056808811707
115,1623008202.2488108,51.599998474121094,25.559999465942383,29.11199951171875,1500000,-8662.980128945364,-135.8776116469173
116,1623008203.2944999,52.099998474121094,25.559999465942383,29.11199951171875,1500000,-8798.527777794843,-135.54764884947872
117,1623008204.340531,51.099998474121094,25.559999465942383,29.11199951171875,1500000,-8934.23834588296,-135.71056808811707
118,1623008205.3830607,51.599998474121094,25.559999465942383,29.11199951171875,1500000,-9069.396994793475,-135.15864891051388
119,1623008206.4239228,51.099998474121094,25.549999237060547,28.722999572753906,1500000,-9204.395747505001,-134.99875271152618
120,1623008207.4661179,50.599998474121094,25.549999237060547,28.722000122070312,1500000,-9339.08737992979,-134.6916324247882
121,1623008208.5061,49.599998474121094,25.549999237060547,28.72100067138672,1500000,-9472.554029404879,-133.46664947508907
122,1623008209.546421,51.099998474121094,25.549999237060547,27.0310001373291,1500000,-9604.38578229951,-131.83175289463165
123,1623008210.5874555,50.599998474121094,25.549999237060547,25.55500030517578,1500000,-9736.37443113373,-131.98864883421993
124,1623008211.6306515,51.099998474121094,25.540000915527344,25.55299949645996,1500000,-9868.04721074467,-131.6727796109386
125,1623008212.6734695,50.099998474121094,25.540000915527344,25.551000595092773,1500000,-9999.717989546893,-131.67077880222277
126,1623008213.7159414,50.099998474121094,25.540000915527344,25.548999786376953,1500000,-10131.541743021358,-131.82375347446563
127,1623008214.763186,50.599998474121094,25.540000915527344,25.547000885009766,1500000,-10263.057374851054,-131.51563182969542
128,1623008215.8094163,49.599998474121094,25.540000915527344,25.545000076293945,1500000,-10394.722153134479,-131.66477828342394
129,1623008216.8541605,50.099998474121094,25.530000686645508,25.542999267578125,1500000,-10526.233785254091,-131.51163211961241
130,1623008217.9007025,49.599998474121094,25.530000686645508,25.541000366210938,1500000,-10657.59600114175,-131.3622158876587
131,1623008218.942164,49.099998474121094,25.530000686645508,25.538999557495117,1500000,-10789.254780813724,-131.65877967197375
132,1623008219.9844563,50.099998474121094,25.530000686645508,25.53700065612793,1500000,-10920.760412414538,-131.5056316008136
133,1623008221.027065,49.599998474121094,25.530000686645508,25.53499984741211,1500000,-11052.57016595004,-131.8097535355008
134,1623008222.069455,50.599998474121094,25.520000457763672,25.533000946044922,1500000,-11183.924382417532,-131.35421646749268
135,1623008223.1102438,49.099998474121094,25.520000457763672,25.5310001373291,1500000,-11315.575160761991,-131.6507783444591
136,1623008224.1544316,50.099998474121094,25.520000457763672,25.52899932861328,1500000,-11446.925377519401,-131.35021675740967
137,1623008225.1972258,49.099998474121094,25.520000457763672,25.527000427246094,1500000,-11578.572156153778,-131.6467786343761
138,1623008226.2464578,50.099998474121094,25.520000457763672,25.524999618530273,1500000,-11709.803066445364,-131.230910291586
139,1623008227.2927973,48.70000076293945,25.510000228881836,25.523000717163086,1500000,-11841.147282683974,-131.34421623861084
140,1623008228.3391795,49.099998474121094,25.510000228881836,25.520999908447266,1500000,-11972.788060799552,-131.64077811557726
141,1623008229.3948035,50.099998474121094,25.510000228881836,25.518999099731445,1500000,-12105.333839601775,-132.54577880222277
142,1623008230.4520285,50.099998474121094,34.58000183105469,26.423999786376953,1500000,-12238.676619289008,-133.34277968723254
143,1623008231.4994433,50.099998474121094,33.5,27.22100067138672,1500000,-12372.018397618209,-133.3417783292003
144,1623008232.5428772,50.099998474121094,25.510000228881836,27.219999313354492,1500000,-12505.359176496726,-133.34077887851672
145,1623008233.5902238,50.099998474121094,25.510000228881836,27.2189998626709,1500000,-12638.69895592456,-133.33977942783312
146,1623008234.645548,50.099998474121094,25.510000228881836,27.218000411987305,1500000,-12772.03773399436,-133.3387780698009
147,1623008235.6945703,50.099998474121094,25.510000228881836,27.216999053955078,1500000,-12906.987365839315,-134.9496318449542
148,1623008236.7486598,49.599998474121094,43.13999938964844,28.979000091552734,1500000,-13042.402015268628,-135.4146494293127
149,1623008237.8006613,51.099998474121094,25.510000228881836,28.979000091552734,1500000,-13177.97958393658,-135.57756866795106
150,1623008238.858794,51.599998474121094,25.510000228881836,28.979000091552734,1500000,-13313.25433571732,-135.27475178074005
151,1623008239.9223592,50.599998474121094,25.700000762939453,28.99799919128418,1500000,-13449.887904141131,-136.63356842381043
152,1623008240.984435,51.599998474121094,44.95000076293945,30.03499984741211,1500000,-13585.331683660517,-135.44377951938586
153,1623008242.0388598,50.099998474121094,26.3700008392334,29.32200050354004,1500000,-13720.930436753513,-135.5987530929959
154,1623008243.110371,50.599998474121094,25.510000228881836,29.32200050354004,1500000,-13858.265005390947,-137.33456863743348
155,1623008244.1782396,51.599998474121094,39.650001525878906,30.736000061035156,1500000,-13995.766617587182,-137.5016121962337
156,1623008245.2370105,52.099998474121094,25.510000228881836,30.736000061035156,1500000,-14134.744187781012,-138.97757019382996
157,1623008246.3137865,51.599998474121094,41.939998626708984,32.37900161743164,1500000,-14273.493836294798,-138.74964851378536
158,1623008247.40241,51.099998474121094,42.4900016784668,32.31399917602539,1500000,-14412.603485418935,-139.10964912413692
159,1623008248.4452424,51.099998474121094,29.110000610351562,32.67399978637695,1500000,-14551.714133993755,-139.11064857482052
160,1623008249.493468,51.099998474121094,25.520000457763672,32.67499923706055,1500000,-14690.492914504963,-138.77878051120715
161,1623008250.5362177,50.099998474121094,25.520000457763672,32.65700149536133,1500000,-14827.48266643829,-136.98975193332794
162,1623008251.5791082,50.599998474121094,25.510000228881836,30.71299934387207,1500000,-14964.231446262853,-136.74877982456164
163,1623008252.6210563,50.099998474121094,25.510000228881836,30.62700080871582,1500000,-15101.294096409329,-137.0626501464758
164,1623008253.6621637,51.099998474121094,25.510000228881836,30.62700080871582,1500000,-15236.783848342657,-135.48975193332794
165,1623008254.7023206,50.599998474121094,25.510000228881836,29.21299934387207,1500000,-15372.118626702375,-135.3347783597179
166,1623008255.745876,50.099998474121094,25.510000228881836,29.21299934387207,1500000,-15505.51084327668,-133.3922165743042
