,TIME,TEMP,UTIL,AVG_UTIL,FREQ,MEM_FREE,LOAD,AVG_EP_REW,REW
0,1625034288.374901,0.6324999928474426,0.2702000141143799,0.02701999992132187,700000,0.6738150119781494,0.3425000011920929,-5.626518225952191,-5.626518225952191
1,1625034289.4957764,0.6324999928474426,0.9031000137329102,0.11732999980449677,1300000,0.681033194065094,0.3425000011920929,-17.54539316598433,-11.918874940032138
2,1625034290.6511474,0.6449999809265137,0.5717999935150146,0.17451000213623047,1100000,0.687829315662384,0.3425000011920929,-26.25708212846323,-8.711688962478904
3,1625034291.8543735,0.6512500047683716,0.7468000054359436,0.24919000267982483,1400000,0.6792294383049011,0.35499998927116394,-37.0626223260802,-10.805540197616967
4,1625034293.0040717,0.6625000238418579,0.7080000042915344,0.31999000906944275,1100000,0.6682366132736206,0.35499998927116394,-44.76803633172348,-7.70541400564328
5,1625034294.1268275,0.6512500047683716,0.5482000112533569,0.37481001019477844,1200000,0.6654003858566284,0.35499998927116394,-52.311594890827486,-7.543558559104008
6,1625034295.272013,0.6512500047683716,0.43689998984336853,0.41850000619888306,1000000,0.6614071130752563,0.35499998927116394,-57.96858110941849,-5.656986218591003
7,1625034296.3670168,0.6512500047683716,0.6054999828338623,0.47905001044273376,1500000,0.6613190770149231,0.3474999964237213,-67.77737159594291,-9.808790486524419
8,1625034297.5480838,0.6512500047683716,0.42750000953674316,0.5217999815940857,700000,0.6584372520446777,0.3474999964237213,-77.85150842305889,-10.074136827115973
9,1625034298.6585703,0.65625,0.3057999908924103,0.5523800253868103,1200000,0.6664631962776184,0.3474999964237213,-84.62350710813067,-6.771998685071782
10,1625034299.7565198,0.6449999809265137,0.3903999924659729,0.5644000172615051,1200000,0.6637089252471924,0.3474999964237213,-91.98755511228106,-7.364048004150391
11,1625034300.845414,0.6387500166893005,0.21819999814033508,0.49590998888015747,1400000,0.6625701785087585,0.3474999964237213,-101.40866887593079,-9.42111376364973
12,1625034301.9466102,0.6262500286102295,0.21809999644756317,0.4605399966239929,1200000,0.6639124155044556,0.3174999952316284,-108.85323802097395,-7.444569145043163
13,1625034303.1304135,0.6324999928474426,0.21809999644756317,0.4076699912548065,600000,0.6641006469726562,0.3174999952316284,-117.59816518713228,-8.744927166158332
14,1625034304.2933536,0.6324999928474426,0.21809999644756317,0.35868000984191895,700000,0.6672831177711487,0.3174999952316284,-124.93782181459281,-7.339656627460522
15,1625034305.4547796,0.6200000047683716,0.21799999475479126,0.32565999031066895,700000,0.6673893928527832,0.3174999952316284,-132.19627870785806,-7.258456893265247
16,1625034306.5866113,0.6137499809265137,0.21799999475479126,0.3037700057029724,900000,0.6675716042518616,0.29249998927116394,-136.54698035724522,-4.350701649387149
17,1625034307.6893814,0.6087499856948853,0.21789999306201935,0.2650099992752075,1200000,0.6672041416168213,0.29249998927116394,-145.98033740331906,-9.433357046073827
18,1625034308.7969413,0.6137499809265137,0.21789999306201935,0.24404999613761902,1100000,0.6667031049728394,0.29249998927116394,-154.31451477695106,-8.334177373631997
19,1625034309.981234,0.6200000047683716,0.21789999306201935,0.2352599948644638,600000,0.6663296222686768,0.29249998927116394,-161.92043808336646,-7.605923306415395
20,1625034311.078878,0.6200000047683716,0.21780000627040863,0.21799999475479126,1300000,0.6669065356254578,0.29249998927116394,-172.66238496742687,-10.741946884060413
21,1625034312.1706476,0.6087499856948853,0.21780000627040863,0.21796000003814697,1300000,0.6665300130844116,0.27000001072883606,-182.89745549775205,-10.235070530325174
22,1625034313.2985144,0.6087499856948853,0.21780000627040863,0.21793000400066376,900000,0.6662445664405823,0.27000001072883606,-187.3555065030995,-4.458051005347439
23,1625034314.4603431,0.6025000214576721,0.21770000457763672,0.21788999438285828,700000,0.6668276190757751,0.27000001072883606,-193.70125141160068,-6.345744908501176
24,1625034315.5628903,0.6087499856948853,0.21770000457763672,0.217849999666214,1200000,0.6666332483291626,0.27000001072883606,-203.25575732254356,-9.554505910942868
25,1625034316.6705873,0.6087499856948853,0.21770000457763672,0.21782000362873077,1100000,0.6668245792388916,0.2475000023841858,-211.51555843345116,-8.259801110907597
26,1625034317.7724874,0.6025000214576721,0.2176000028848648,0.2177799940109253,1200000,0.6663538813591003,0.2475000023841858,-220.8166917892318,-9.301133355780644
27,1625034318.9143226,0.6137499809265137,0.2176000028848648,0.21774999797344208,800000,0.6664450168609619,0.2475000023841858,-226.26979503909348,-5.453103249861666
28,1625034320.0172966,0.6025000214576721,0.2175000011920929,0.2177100032567978,1200000,0.666624128818512,0.2475000023841858,-235.7642305338282,-9.494435494734713
29,1625034321.1066968,0.6137499809265137,0.2175000011920929,0.2176699936389923,1400000,0.6664450168609619,0.2475000023841858,-247.10067768771384,-11.336447153885631
30,1625034322.1937497,0.6087499856948853,0.2175000011920929,0.2176399976015091,1400000,0.6661686301231384,0.22750000655651093,-258.3034958392773,-11.202818151563406
31,1625034323.280535,0.6025000214576721,0.21739999949932098,0.2176000028848648,1400000,0.666171669960022,0.22750000655651093,-269.5708105080221,-11.267314668744802
32,1625034324.3672109,0.6200000047683716,0.21739999949932098,0.21755999326705933,1400000,0.6663478016853333,0.22750000655651093,-280.7508663610015,-11.180055852979422
33,1625034325.4937027,0.5962499976158142,0.21739999949932098,0.2175299972295761,900000,0.6658740639686584,0.22750000655651093,-285.27421964730746,-4.52335328630598
34,1625034326.5793662,0.6025000214576721,0.21729999780654907,0.21749000251293182,1500000,0.6662658452987671,0.20999999344348907,-297.86150939987465,-12.587289752567186
35,1625034327.7205951,0.5962499976158142,0.21729999780654907,0.21744999289512634,800000,0.6660775542259216,0.20999999344348907,-303.56737840456583,-5.705869004691154
36,1625034328.909974,0.6025000214576721,0.21729999780654907,0.21741999685764313,600000,0.6660866737365723,0.20999999344348907,-310.8542891328311,-7.286910728265314
37,1625034330.0234375,0.5962499976158142,0.21719999611377716,0.21738000214099884,1100000,0.6660805940628052,0.20999999344348907,-319.3548591173664,-8.500569984535293
38,1625034331.1833546,0.5962499976158142,0.21719999611377716,0.21735000610351562,700000,0.6660836338996887,0.20999999344348907,-325.77393057002763,-6.419071452661225
39,1625034332.2861588,0.5962499976158142,0.22110000252723694,0.2177100032567978,1200000,0.666274905204773,0.19249999523162842,-335.2480788772417,-9.474148307214097
40,1625034333.469074,0.5899999737739563,0.21719999611377716,0.21768000721931458,600000,0.6662961840629578,0.19249999523162842,-342.831527378674,-7.583448501432313
41,1625034334.5801718,0.5962499976158142,0.21709999442100525,0.21764999628067017,1100000,0.66657555103302,0.19249999523162842,-351.32827711526113,-8.496749736587123
42,1625034335.6860137,0.5962499976158142,0.21709999442100525,0.21762000024318695,1100000,0.6664024591445923,0.19249999523162842,-359.4973919657226,-8.169114850461483
43,1625034336.8470767,0.5962499976158142,0.21699999272823334,0.21758000552654266,700000,0.6661990284919739,0.17749999463558197,-365.91241916500474,-6.415027199282118
44,1625034337.9579504,0.5962499976158142,0.21699999272823334,0.21754999458789825,1100000,0.66657555103302,0.17749999463558197,-374.35020866287084,-8.437789497866103
45,1625034339.1020331,0.6025000214576721,0.21699999272823334,0.21751999855041504,800000,0.6667881608009338,0.17749999463558197,-379.7169974684213,-5.366788805550487
46,1625034340.1950893,0.6025000214576721,0.21690000593662262,0.21748000383377075,1400000,0.6664085388183594,0.17749999463558197,-391.29715397179507,-11.580156503373756
47,1625034341.3029814,0.5962499976158142,0.21690000593662262,0.21744999289512634,1100000,0.6662293672561646,0.17749999463558197,-399.59716500786936,-8.300011036074313
48,1625034342.4434612,0.5837500095367432,0.21690000593662262,0.21741999685764313,800000,0.6664206981658936,0.18250000476837158,-404.9422577674251,-5.345092759555729
49,1625034343.5296526,0.5962499976158142,0.2168000042438507,0.21698999404907227,1500000,0.6664146184921265,0.18250000476837158,-417.64205977551205,-12.69980200808695
50,1625034344.7437885,0.6025000214576721,0.2168000042438507,0.21694999933242798,600000,0.6660289764404297,0.18250000476837158,-425.56478698544225,-7.922727209930186
51,1625034345.8941002,0.6025000214576721,0.2168000042438507,0.21692000329494476,1100000,0.6658376455307007,0.18250000476837158,-434.25392825543395,-8.689141269991712
52,1625034347.2225387,0.6262500286102295,0.7379999756813049,0.2690100073814392,600000,0.6560838222503662,0.16750000417232513,-442.9180013168504,-8.664073061416463
53,1625034350.9944317,0.6200000047683716,0.7275000214576721,0.32006001472473145,1200000,0.6468644738197327,0.16750000417232513,-8.671289065981282,-8.671289065981282
54,1625034352.1421032,0.6200000047683716,0.21729999780654907,0.32008999586105347,1100000,0.6418995261192322,0.19499999284744263,-15.984104190805134,-7.312815124823851
55,1625034353.265542,0.6200000047683716,0.21729999780654907,0.3201200067996979,1400000,0.6419481039047241,0.19499999284744263,-26.396079489901393,-10.411975299096259
56,1625034354.4018755,0.6137499809265137,0.21719999611377716,0.3201499879360199,1200000,0.6429046392440796,0.19499999284744263,-34.798581040118336,-8.402501550216941
57,1625034355.6542983,0.6200000047683716,0.3792000114917755,0.3363800048828125,600000,0.6436790227890015,0.19499999284744263,-43.5079926073239,-8.709411567205562
58,1625034356.7752337,0.6200000047683716,0.30959999561309814,0.34564998745918274,1100000,0.644155740737915,0.25999999046325684,-51.06511576566943,-7.5571231583455365
59,1625034357.8661063,0.6087499856948853,0.21729999780654907,0.3456999957561493,1500000,0.6465790271759033,0.25999999046325684,-62.49809746348099,-11.432981697811552
60,1625034358.9830167,0.5962499976158142,0.21719999611377716,0.3457399904727936,1100000,0.6465668678283691,0.25999999046325684,-69.99517370474958,-7.497076241268584
61,1625034360.1804981,0.6137499809265137,0.21719999611377716,0.34577998518943787,600000,0.6599343419075012,0.25999999046325684,-77.50660368909055,-7.511429984340982
62,1625034361.378784,0.5962499976158142,0.21719999611377716,0.2937000095844269,600000,0.661106526851654,0.25999999046325684,-84.75285683308655,-7.246253143996
63,1625034362.508225,0.6137499809265137,0.21709999442100525,0.24266000092029572,1000000,0.661868691444397,0.23749999701976776,-92.20369008103015,-7.450833247943589
64,1625034363.6268206,0.6025000214576721,0.21709999442100525,0.24264000356197357,1100000,0.6681941151618958,0.23749999701976776,-100.48410131208522,-8.280411231055064
65,1625034364.7790093,0.6087499856948853,0.21709999442100525,0.24262000620365143,800000,0.6670523285865784,0.23749999701976776,-105.84116556768653,-5.357064255601318
66,1625034365.9063535,0.5962499976158142,0.21699999272823334,0.2425999939441681,1000000,0.6668609976768494,0.23749999701976776,-113.15296659583831,-7.311801028151779
67,1625034367.106,0.6025000214576721,0.21699999272823334,0.22638000547885895,600000,0.6676262617111206,0.2199999988079071,-120.62288346662493,-7.469916870786616
68,1625034368.2110834,0.6087499856948853,0.21699999272823334,0.2171200066804886,1300000,0.6672436594963074,0.2199999988079071,-131.30807517300866,-10.685191706383735
69,1625034369.338122,0.5962499976158142,0.21690000593662262,0.2170799970626831,1200000,0.6670553684234619,0.2199999988079071,-140.53897598469499,-9.23090081168632
70,1625034370.4767616,0.5962499976158142,0.21690000593662262,0.2170500010251999,900000,0.6672406196594238,0.2199999988079071,-144.87014231271405,-4.331166328019054
71,1625034371.603084,0.5899999737739563,0.21690000593662262,0.21702000498771667,1000000,0.6670523285865784,0.2224999964237213,-152.10156312649727,-7.231420813783211
72,1625034372.7268152,0.5962499976158142,0.2168000042438507,0.2169799953699112,1000000,0.6668549180030823,0.2224999964237213,-159.25777780329466,-7.15621467679739
73,1625034373.8360558,0.5899999737739563,0.2168000042438507,0.21694999933242798,1200000,0.6669430136680603,0.2224999964237213,-168.57007683570413,-9.312299032409458
74,1625034374.9727664,0.6025000214576721,0.2168000042438507,0.21692000329494476,900000,0.6669430136680603,0.2224999964237213,-172.92381934307858,-4.353742507374437
75,1625034376.12578,0.5962499976158142,0.2167000025510788,0.21687999367713928,800000,0.6671403646469116,0.2224999964237213,-178.12880497908856,-5.204985636009974
76,1625034377.243266,0.5899999737739563,0.2167000025510788,0.21684999763965607,1100000,0.6669460535049438,0.20499999821186066,-186.5015175363807,-8.372712557292136
77,1625034378.3805187,0.6025000214576721,0.2167000025510788,0.21682000160217285,900000,0.6671373248100281,0.20499999821186066,-190.78721926638315,-4.285701730002431
78,1625034379.506847,0.5962499976158142,0.21660000085830688,0.21678000688552856,1000000,0.6669490933418274,0.20499999821186066,-198.0375673749273,-7.250348108544154
79,1625034380.663968,0.6025000214576721,0.21660000085830688,0.21674999594688416,800000,0.6670462489128113,0.20499999821186066,-203.3422409057339,-5.30467353080657
80,1625034381.7739985,0.6025000214576721,0.21660000085830688,0.21671999990940094,1400000,0.6669460535049438,0.1875,-214.94725370826956,-11.605012802535667
81,1625034383.006141,0.6025000214576721,0.21649999916553497,0.21668000519275665,600000,0.6669460535049438,0.1875,-222.7539775748562,-7.806723866586646
82,1625034384.2042172,0.6025000214576721,0.21649999916553497,0.21664999425411224,700000,0.6671282649040222,0.1875,-229.00051643623445,-6.2465388613782356
83,1625034385.3224182,0.6025000214576721,0.21649999916553497,0.21661999821662903,1100000,0.6675321459770203,0.1875,-237.4632870602898,-8.462770624055334
84,1625034386.4603007,0.6087499856948853,0.21649999916553497,0.2165900021791458,900000,0.6673438549041748,0.1875,-241.72364136375853,-4.260354303468732
85,1625034387.5773637,0.5899999737739563,0.21649999916553497,0.21657000482082367,1100000,0.66791170835495,0.19249999523162842,-250.029359391459,-8.305718027700452
86,1625034388.6799147,0.6025000214576721,0.21639999747276306,0.21653999388217926,1300000,0.66791170835495,0.19249999523162842,-260.3123151205755,-10.282955729116468
87,1625034389.7880764,0.5962499976158142,0.21639999747276306,0.21650999784469604,1200000,0.6679208278656006,0.19249999523162842,-269.5598979796587,-9.247582859083218
88,1625034390.8946242,0.6025000214576721,0.21629999577999115,0.21648000180721283,1200000,0.667356014251709,0.19249999523162842,-278.72888858051283,-9.168990600854158
89,1625034392.047759,0.5962499976158142,0.21629999577999115,0.21645000576972961,800000,0.6674531698226929,0.17749999463558197,-284.12117085223963,-5.3922822717267955
90,1625034393.145361,0.5899999737739563,0.21629999577999115,0.2164199948310852,1400000,0.6671009063720703,0.17749999463558197,-295.74687027375904,-11.625699421519412
91,1625034394.2823474,0.6087499856948853,0.21619999408721924,0.216389998793602,900000,0.6667031049728394,0.17749999463558197,-300.217583081007,-4.470712807247953
92,1625034395.456786,0.5899999737739563,0.21619999408721924,0.21636000275611877,700000,0.6667881608009338,0.17749999463558197,-306.49725730993293,-6.2796742289259715
93,1625034396.5769932,0.5962499976158142,0.21619999408721924,0.21633000671863556,1100000,0.6667881608009338,0.17749999463558197,-314.94028956157297,-8.44303225164003
94,1625034397.731702,0.6025000214576721,0.21610000729560852,0.21628999710083008,800000,0.6669946312904358,0.20250000059604645,-320.31233886818035,-5.372049306607397
95,1625034398.8826087,0.6025000214576721,0.21610000729560852,0.2162500023841858,800000,0.6667213439941406,0.20250000059604645,-325.48669647241576,-5.174357604235411
96,1625034399.9802043,0.5962499976158142,0.21610000729560852,0.21622000634670258,1400000,0.66671222448349,0.20250000059604645,-337.09485552475235,-11.608159052336587
97,1625034401.1187234,0.6025000214576721,0.2160000056028366,0.2161799967288971,900000,0.6669005155563354,0.20250000059604645,-341.61307581178716,-4.518220287034826
98,1625034402.2186754,0.6025000214576721,0.2160000056028366,0.21615000069141388,1400000,0.6669065356254578,0.1875,-353.13129609882196,-11.518220287034826
99,1625034403.392316,0.6025000214576721,0.2160000056028366,0.21612000465393066,700000,0.6671009063720703,0.1875,-359.80925105627193,-6.677954957449943
100,1625034404.5111299,0.5962499976158142,0.2159000039100647,0.21607999503612518,1100000,0.668631374835968,0.1875,-368.2262420088073,-8.41699095253534
101,1625034405.6666741,0.5962499976158142,0.2159000039100647,0.21604999899864197,800000,0.6686344146728516,0.1875,-373.5690115171454,-5.342769508338125
102,1625034406.805475,0.5962499976158142,0.2159000039100647,0.21602000296115875,900000,0.668631374835968,0.17249999940395355,-377.78941982891394,-4.2204083117685744
103,1625034407.9082892,0.5962499976158142,0.21580000221729279,0.21597999334335327,1300000,0.6684279441833496,0.17249999940395355,-388.2031550304653,-10.413735201551386
104,1625034408.9993813,0.5962499976158142,0.21580000221729279,0.21594999730587006,1500000,0.667863130569458,0.17249999940395355,-400.5273464337544,-12.324191403289108
105,1625034410.1499135,0.6087499856948853,0.21580000221729279,0.21592000126838684,800000,0.667863130569458,0.17249999940395355,-406.17940771417835,-5.65206128042391
106,1625034411.418126,0.5899999737739563,0.21570000052452087,0.21588000655174255,600000,0.6680574417114258,0.17249999940395355,-7.298033781994848,-7.298033781994848
107,1625034412.5218801,0.6025000214576721,0.21570000052452087,0.21584999561309814,1500000,0.662321150302887,0.1574999988079071,-20.169784763956102,-12.871750981961256
108,1625034413.623107,0.5899999737739563,0.21570000052452087,0.21581999957561493,1300000,0.6577357649803162,0.1574999988079071,-30.445056247366963,-10.275271483410863
109,1625034414.7140365,0.5962499976158142,0.21570000052452087,0.2157900035381317,1500000,0.6581245064735413,0.1574999988079071,-42.74307427883443,-12.298018031467466
110,1625034415.9111185,0.6025000214576721,0.21559999883174896,0.2157599925994873,600000,0.6588684916496277,0.1574999988079071,-50.63473518655452,-7.891660907720094
111,1625034417.03097,0.5962499976158142,0.21559999883174896,0.2157299965620041,1100000,0.6615468263626099,0.14499999582767487,-59.143717472630186,-8.508982286075668
112,1625034418.146028,0.6025000214576721,0.21559999883174896,0.21570000052452087,1100000,0.661744236946106,0.14499999582767487,-67.30556232407932,-8.161844851449132
113,1625034419.2485986,0.5962499976158142,0.21549999713897705,0.21567000448703766,1300000,0.6655673980712891,0.14499999582767487,-77.60087085319252,-10.295308529113202
114,1625034420.3860047,0.6025000214576721,0.21549999713897705,0.21563999354839325,900000,0.6661504507064819,0.14499999582767487,-82.03137585135379,-4.430504998161265
115,1625034421.558703,0.6025000214576721,0.21539999544620514,0.21559999883174896,700000,0.6664389371871948,0.14499999582767487,-88.2609616076154,-6.229585756261615
116,1625034422.686655,0.5837500095367432,0.21539999544620514,0.21557000279426575,1000000,0.666630208492279,0.1550000011920929,-95.59987536226352,-7.338913754648121
117,1625034423.8105814,0.5962499976158142,0.21539999544620514,0.21554000675678253,1000000,0.6677719950675964,0.1550000011920929,-102.741223537968,-7.141348175704479
118,1625034424.907463,0.5899999737739563,0.21529999375343323,0.21549999713897705,1400000,0.6675746440887451,0.1550000011920929,-114.19677191191938,-11.455548373951384
119,1625034426.1048925,0.6087499856948853,0.21529999375343323,0.21546000242233276,600000,0.6676900386810303,0.1550000011920929,-121.97081997766101,-7.774048065741619
120,1625034427.1998498,0.5962499976158142,0.21529999375343323,0.21543000638484955,1500000,0.6675776839256287,0.14249999821186066,-134.83926420941413,-12.868444231753116
